Frequency	VDOS
0.159154943	0.009316133
0.238732415	0.010225169
0.318309886	0.011433965
0.397887358	0.012882875
0.477464829	0.014501202
0.557042301	0.016211587
0.636619772	0.017935153
0.716197244	0.019597167
0.795774715	0.021132836
0.875352187	0.022492798
0.954929659	0.023647759
1.03450713	0.024591735
1.114084602	0.02534338
1.193662073	0.025945036
1.273239545	0.026459314
1.352817016	0.0269633
1.432394488	0.027540749
1.511971959	0.028272945
1.591549431	0.029229119
1.671126902	0.030457495
1.750704374	0.03197806
1.830281846	0.033778041
1.909859317	0.035810839
1.989436789	0.037998809
2.06901426	0.040239793
2.148591732	0.042416881
2.228169203	0.044410397
2.307746675	0.046110771
2.387324146	0.047430785
2.466901618	0.048315631
2.546479089	0.048749459
2.626056561	0.048757419
2.705634033	0.048402781
2.785211504	0.047779253
2.864788976	0.046999299
2.944366447	0.046179745
3.023943919	0.045426394
3.10352139	0.044819567
3.183098862	0.044402433
3.262676333	0.044173761
3.342253805	0.04408619
3.421831276	0.044050514
3.501408748	0.043945713
3.58098622	0.04363372
3.660563691	0.042977278
3.740141163	0.041858734
3.819718634	0.0401974
3.899296106	0.037963136
3.978873577	0.035184184
4.058451049	0.031947881
4.13802852	0.028393755
4.217605992	0.024699476
4.297183463	0.021061128
4.376760935	0.01767018
4.456338407	0.014690135
4.535915878	0.012236177
4.61549335	0.010360957
4.695070821	0.009049096
4.774648293	0.008221964
4.854225764	0.007752946
4.933803236	0.007491939
5.013380707	0.007296292
5.092958179	0.007064219
5.17253565	0.006765874
5.252113122	0.006467123
5.331690594	0.00634153
5.411268065	0.006667295
5.490845537	0.007807637
5.570423008	0.010175328
5.65000048	0.014184334
5.729577951	0.020193605
5.809155423	0.028449617
5.888732894	0.039035035
5.968310366	0.051830683
6.047887837	0.066496864
6.127465309	0.082477987
6.207042781	0.099031794
6.286620252	0.11528141
6.366197724	0.130285576
6.445775195	0.143119931
6.525352667	0.15296067
6.604930138	0.159161371
6.68450761	0.161314443
6.764085081	0.159290399
6.843662553	0.153250759
6.923240024	0.143633494
7.002817496	0.131113113
7.082394968	0.116540322
7.161972439	0.100868318
7.241549911	0.085073922
7.321127382	0.070081797
7.400704854	0.056699043
7.480282325	0.045565631
7.559859797	0.037123832
7.639437268	0.031607251
7.71901474	0.029047844
7.798592212	0.029297465
7.878169683	0.032059429
7.957747155	0.036925296
8.037324626	0.043412464
8.116902098	0.050999157
8.196479569	0.059154663
8.276057041	0.067363976
8.355634512	0.075147127
8.435211984	0.082074209
8.514789455	0.08777737
8.594366927	0.091960897
8.673944399	0.094409972
8.75352187	0.094998039
8.833099342	0.093692047
8.912676813	0.090554383
8.992254285	0.085740206
9.071831756	0.079489099
9.151409228	0.072110598
9.230986699	0.063963934
9.310564171	0.055433272
9.390141642	0.046900491
9.469719114	0.038718152
9.549296586	0.031185423
9.628874057	0.02452951
9.708451529	0.018894513
9.788029	0.01433868
9.867606472	0.01083998
9.947183943	0.008308865
10.02676141	0.006606235
10.10633889	0.005564099
10.18591636	0.005006267
10.26549383	0.004766626
10.3450713	0.004703154
10.42464877	0.004706568
10.50422624	0.004703384
10.58380372	0.00465395
10.66338119	0.004546646
10.74295866	0.004389789
10.82253613	0.004202876
10.9021136	0.004008597
10.98169107	0.003826679
11.06126854	0.003670115
11.14084602	0.003543846
11.22042349	0.003445512
11.30000096	0.003367626
11.37957843	0.003300394
11.4591559	0.003234428
11.53873337	0.003162815
11.61831085	0.003082205
11.69788832	0.002992882
11.77746579	0.002897998
11.85704326	0.00280228
11.93662073	0.002710615
12.0161982	0.002626838
12.09577567	0.002552979
12.17535315	0.002489057
12.25493062	0.002433396
12.33450809	0.00238329
12.41408556	0.002335818
12.49366303	0.002288595
12.5732405	0.002240276
12.65281798	0.002190735
12.73239545	0.00214091
12.81197292	0.002092395
12.89155039	0.002046909
12.97112786	0.002005787
13.05070533	0.001969607
13.13028281	0.00193804
13.20986028	0.001909937
13.28943775	0.001883602
13.36901522	0.001857188
13.44859269	0.001829087
13.52817016	0.001798253
13.60774763	0.001764366
13.68732511	0.001727829
13.76690258	0.001689617
13.84648005	0.001651015
13.92605752	0.001613341
14.00563499	0.001577696
14.08521246	0.001544812
14.16478994	0.001515015
14.24436741	0.001488291
14.32394488	0.001464428
14.40352235	0.001443182
14.48309982	0.001424417
14.56267729	0.001408169
14.64225476	0.001394639
14.72183224	0.001384091
14.80140971	0.001376712
14.88098718	0.001372452
14.96056465	0.001370904
15.04014212	0.001371251
15.11971959	0.0013723
15.19929707	0.001372607
15.27887454	0.00137066
15.35845201	0.001365083
15.43802948	0.001354838
15.51760695	0.00133936
15.59718442	0.001318615
15.67676189	0.001293076
15.75633937	0.001263623
15.83591684	0.001231386
15.91549431	0.001197576
15.99507178	0.001163335
16.07464925	0.001129623
16.15422672	0.001097164
16.2338042	0.001066448
16.31338167	0.001037775
16.39295914	0.001011322
16.47253661	0.000987205
16.55211408	0.000965519
16.63169155	0.000946356
16.71126902	0.000929774
16.7908465	0.000915762
16.87042397	0.000904182
16.95000144	0.000894742
17.02957891	0.000886977
17.10915638	0.000880282
17.18873385	0.000873966
17.26831133	0.000867343
17.3478888	0.000859816
17.42746627	0.000850959
17.50704374	0.000840568
17.58662121	0.000828676
17.66619868	0.000815521
17.74577615	0.000801492
17.82535363	0.000787041
17.9049311	0.000772608
17.98450857	0.000758548
18.06408604	0.000745094
18.14366351	0.000732345
18.22324098	0.000720286
18.30281846	0.000708837
18.38239593	0.000697895
18.4619734	0.000687387
18.54155087	0.000677294
18.62112834	0.00066766
18.70070581	0.000658571
18.78028328	0.000650126
18.85986076	0.000642394
18.93943823	0.000635382
19.0190157	0.000629015
19.09859317	0.000623137
19.17817064	0.000617531
19.25774811	0.00061196
19.33732559	0.000606211
19.41690306	0.000600132
19.49648053	0.000593667
19.576058	0.000586856
19.65563547	0.000579828
19.73521294	0.000572768
19.81479041	0.000565872
19.89436789	0.000559313
19.97394536	0.0005532
20.05352283	0.000547563
20.1331003	0.000542359
20.21267777	0.000537483
20.29225524	0.000532805
20.37183272	0.0005282
20.45141019	0.000523582
20.53098766	0.000518918
20.61056513	0.000514231
20.6901426	0.000509589
20.76972007	0.000505081
20.84929755	0.000500783
20.92887502	0.000496739
21.00845249	0.000492939
21.08802996	0.000489317
21.16760743	0.000485762
21.2471849	0.000482142
21.32676237	0.000478328
21.40633985	0.000474226
21.48591732	0.000469795
21.56549479	0.000465055
21.64507226	0.000460085
21.72464973	0.000455003
21.8042272	0.000449943
21.88380468	0.000445033
21.96338215	0.000440365
22.04295962	0.000435989
22.12253709	0.000431908
22.20211456	0.000428086
22.28169203	0.000424465
22.3612695	0.000420983
22.44084698	0.000417592
22.52042445	0.000414267
22.60000192	0.000411012
22.67957939	0.000407848
22.75915686	0.000404804
22.83873433	0.0004019
22.91831181	0.000399135
22.99788928	0.000396479
23.07746675	0.000393875
23.15704422	0.000391247
23.23662169	0.000388514
23.31619916	0.000385612
23.39577663	0.000382506
23.47535411	0.0003792
23.55493158	0.000375743
23.63450905	0.000372215
23.71408652	0.000368716
23.79366399	0.000365347
23.87324146	0.000362188
23.95281894	0.000359285
24.03239641	0.000356643
24.11197388	0.000354225
24.19155135	0.000351965
24.27112882	0.000349782
24.35070629	0.000347595
24.43028376	0.000345345
24.50986124	0.000342999
24.58943871	0.000340554
24.66901618	0.000338038
24.74859365	0.000335489
24.82817112	0.000332952
24.90774859	0.000330461
24.98732607	0.000328029
25.06690354	0.000325649
25.14648101	0.000323295
25.22605848	0.000320932
25.30563595	0.000318526
25.38521342	0.000316056
25.46479089	0.000313526
25.54436837	0.000310961
25.62394584	0.00030841
25.70352331	0.000305933
25.78310078	0.00030359
25.86267825	0.000301427
25.94225572	0.000299468
26.0218332	0.000297706
26.10141067	0.000296107
26.18098814	0.000294614
26.26056561	0.000293158
26.34014308	0.000291674
26.41972055	0.000290107
26.49929802	0.000288426
26.5788755	0.000286622
26.65845297	0.000284711
26.73803044	0.000282722
26.81760791	0.000280691
26.89718538	0.000278653
26.97676285	0.000276631
27.05634033	0.000274633
27.1359178	0.000272658
27.21549527	0.000270695
27.29507274	0.000268733
27.37465021	0.000266769
27.45422768	0.000264811
27.53380515	0.000262882
27.61338263	0.000261015
27.6929601	0.00025925
27.77253757	0.000257625
27.85211504	0.000256164
27.93169251	0.000254876
28.01126998	0.000253744
28.09084746	0.000252733
28.17042493	0.00025179
28.2500024	0.000250855
28.32957987	0.000249868
28.40915734	0.000248784
28.48873481	0.000247571
28.56831228	0.000246223
28.64788976	0.000244749
28.72746723	0.000243176
28.8070447	0.00024154
28.88662217	0.000239879
28.96619964	0.000238225
29.04577711	0.000236603
29.12535459	0.000235028
29.20493206	0.000233508
29.28450953	0.000232045
29.364087	0.000230639
29.44366447	0.000229291
29.52324194	0.000228005
29.60281942	0.000226782
29.68239689	0.000225621
29.76197436	0.000224516
29.84155183	0.000223449
29.9211293	0.000222393
30.00070677	0.000221311
30.08028424	0.00022016
30.15986172	0.000218901
30.23943919	0.000217504
30.31901666	0.000215952
30.39859413	0.000214255
30.4781716	0.000212439
30.55774907	0.000210556
30.63732655	0.000208668
30.71690402	0.000206843
30.79648149	0.000205142
30.87605896	0.000203615
30.95563643	0.000202288
31.0352139	0.000201165
31.11479137	0.000200226
31.19436885	0.000199435
31.27394632	0.000198747
31.35352379	0.000198112
31.43310126	0.000197488
31.51267873	0.000196843
31.5922562	0.000196157
31.67183368	0.000195424
31.75141115	0.000194644
31.83098862	0.000193824
31.91056609	0.00019297
31.99014356	0.000192084
32.06972103	0.000191168
32.1492985	0.000190216
32.22887598	0.000189225
32.30845345	0.000188196
32.38803092	0.000187134
32.46760839	0.000186052
32.54718586	0.000184971
32.62676333	0.000183917
32.70634081	0.000182914
32.78591828	0.000181983
32.86549575	0.000181134
32.94507322	0.000180365
33.02465069	0.000179662
33.10422816	0.000178998
33.18380563	0.000178339
33.26338311	0.000177652
33.34296058	0.000176907
33.42253805	0.000176086
33.50211552	0.00017518
33.58169299	0.000174198
33.66127046	0.000173157
33.74084794	0.000172081
33.82042541	0.000170996
33.90000288	0.000169923
33.97958035	0.000168877
34.05915782	0.000167862
34.13873529	0.000166874
34.21831276	0.000165903
34.29789024	0.000164935
34.37746771	0.000163957
34.45704518	0.000162961
34.53662265	0.000161947
34.61620012	0.00016092
34.69577759	0.000159891
34.77535507	0.000158875
34.85493254	0.000157886
34.93451001	0.000156933
35.01408748	0.000156023
35.09366495	0.000155157
35.17324242	0.000154332
35.25281989	0.000153542
35.33239737	0.000152782
35.41197484	0.000152051
35.49155231	0.000151349
35.57112978	0.00015068
35.65070725	0.000150052
35.73028472	0.000149469
35.8098622	0.000148934
35.88943967	0.000148444
35.96901714	0.000147989
36.04859461	0.000147552
36.12817208	0.000147113
36.20774955	0.000146649
36.28732702	0.000146139
36.3669045	0.00014557
36.44648197	0.000144933
36.52605944	0.000144231
36.60563691	0.000143475
36.68521438	0.000142682
36.76479185	0.000141873
36.84436933	0.000141067
36.9239468	0.000140283
37.00352427	0.000139533
37.08310174	0.000138824
37.16267921	0.000138158
37.24225668	0.00013753
37.32183416	0.000136937
37.40141163	0.000136372
37.4809891	0.000135831
37.56056657	0.000135311
37.64014404	0.000134807
37.71972151	0.000134316
37.79929898	0.000133833
37.87887646	0.000133351
37.95845393	0.000132858
38.0380314	0.000132343
38.11760887	0.000131793
38.19718634	0.000131201
38.27676381	0.000130562
38.35634129	0.000129878
38.43591876	0.00012916
38.51549623	0.000128424
38.5950737	0.000127693
38.67465117	0.000126989
38.75422864	0.000126333
38.83380611	0.000125741
38.91338359	0.000125218
38.99296106	0.000124763
39.07253853	0.000124363
39.152116	0.000124
39.23169347	0.000123651
39.31127094	0.000123296
39.39084842	0.000122915
39.47042589	0.000122496
39.55000336	0.000122034
39.62958083	0.000121529
39.7091583	0.00012099
39.78873577	0.000120424
39.86831324	0.000119843
39.94789072	0.000119255
40.02746819	0.000118665
40.10704566	0.000118074
40.18662313	0.00011748
40.2662006	0.000116883
40.34577807	0.000116279
40.42535555	0.000115669
40.50493302	0.000115054
40.58451049	0.00011444
40.66408796	0.000113835
40.74366543	0.000113245
40.8232429	0.000112677
40.90282037	0.000112135
40.98239785	0.000111622
41.06197532	0.000111133
41.14155279	0.000110666
41.22113026	0.000110214
41.30070773	0.000109771
41.3802852	0.000109335
41.45986268	0.000108904
41.53944015	0.000108479
41.61901762	0.000108063
41.69859509	0.00010766
41.77817256	0.000107273
41.85775003	0.000106904
41.9373275	0.000106549
42.01690498	0.000106205
42.09648245	0.000105864
42.17605992	0.00010552
42.25563739	0.000105165
42.33521486	0.000104795
42.41479233	0.000104411
42.49436981	0.000104014
42.57394728	0.000103612
42.65352475	0.000103212
42.73310222	0.00010282
42.81267969	0.000102442
42.89225716	0.000102081
42.97183463	0.000101734
43.05141211	0.000101395
43.13098958	0.000101056
43.21056705	0.000100709
43.29014452	0.000100348
43.36972199	1.00E-04
43.44929946	9.96E-05
43.52887694	9.92E-05
43.60845441	9.87E-05
43.68803188	9.83E-05
43.76760935	9.79E-05
43.84718682	9.76E-05
43.92676429	9.72E-05
44.00634176	9.69E-05
44.08591924	9.66E-05
44.16549671	9.63E-05
44.24507418	9.60E-05
44.32465165	9.57E-05
44.40422912	9.54E-05
44.48380659	9.50E-05
44.56338407	9.47E-05
44.64296154	9.43E-05
44.72253901	9.39E-05
44.80211648	9.35E-05
44.88169395	9.31E-05
44.96127142	9.28E-05
45.0408489	9.24E-05
45.12042637	9.20E-05
45.20000384	9.17E-05
45.27958131	9.13E-05
45.35915878	9.09E-05
45.43873625	9.06E-05
45.51831372	9.02E-05
45.5978912	8.99E-05
45.67746867	8.95E-05
45.75704614	8.92E-05
45.83662361	8.88E-05
45.91620108	8.85E-05
45.99577855	8.82E-05
46.07535603	8.79E-05
46.1549335	8.75E-05
46.23451097	8.72E-05
46.31408844	8.69E-05
46.39366591	8.65E-05
46.47324338	8.61E-05
46.55282085	8.58E-05
46.63239833	8.54E-05
46.7119758	8.51E-05
46.79155327	8.48E-05
46.87113074	8.46E-05
46.95070821	8.43E-05
47.03028568	8.41E-05
47.10986316	8.39E-05
47.18944063	8.37E-05
47.2690181	8.36E-05
47.34859557	8.34E-05
47.42817304	8.32E-05
47.50775051	8.30E-05
47.58732798	8.27E-05
47.66690546	8.25E-05
47.74648293	8.23E-05
47.8260604	8.20E-05
47.90563787	8.18E-05
47.98521534	8.16E-05
48.06479281	8.14E-05
48.14437029	8.12E-05
48.22394776	8.10E-05
48.30352523	8.08E-05
48.3831027	8.06E-05
48.46268017	8.03E-05
48.54225764	8.01E-05
48.62183511	7.98E-05
48.70141259	7.95E-05
48.78099006	7.92E-05
48.86056753	7.89E-05
48.940145	7.86E-05
49.01972247	7.83E-05
49.09929994	7.81E-05
49.17887742	7.78E-05
49.25845489	7.75E-05
49.33803236	7.71E-05
49.41760983	7.68E-05
49.4971873	7.64E-05
49.57676477	7.61E-05
49.65634224	7.57E-05
49.73591972	7.53E-05
49.81549719	7.50E-05
49.89507466	7.46E-05
49.97465213	7.43E-05
50.0542296	7.40E-05
50.13380707	7.37E-05
50.21338455	7.34E-05
50.29296202	7.31E-05
50.37253949	7.28E-05
50.45211696	7.25E-05
50.53169443	7.22E-05
50.6112719	7.20E-05
50.69084937	7.17E-05
50.77042685	7.14E-05
50.85000432	7.12E-05
50.92958179	7.09E-05
51.00915926	7.07E-05
51.08873673	7.04E-05
51.1683142	7.02E-05
51.24789168	7.00E-05
51.32746915	6.98E-05
51.40704662	6.96E-05
51.48662409	6.94E-05
51.56620156	6.92E-05
51.64577903	6.91E-05
51.7253565	6.89E-05
51.80493398	6.88E-05
51.88451145	6.87E-05
51.96408892	6.85E-05
52.04366639	6.84E-05
52.12324386	6.83E-05
52.20282133	6.81E-05
52.28239881	6.80E-05
52.36197628	6.78E-05
52.44155375	6.76E-05
52.52113122	6.74E-05
52.60070869	6.71E-05
52.68028616	6.69E-05
52.75986363	6.67E-05
52.83944111	6.65E-05
52.91901858	6.62E-05
52.99859605	6.60E-05
53.07817352	6.58E-05
53.15775099	6.56E-05
53.23732846	6.54E-05
53.31690594	6.51E-05
53.39648341	6.49E-05
53.47606088	6.46E-05
53.55563835	6.43E-05
53.63521582	6.40E-05
53.71479329	6.38E-05
53.79437077	6.35E-05
53.87394824	6.32E-05
53.95352571	6.30E-05
54.03310318	6.28E-05
54.11268065	6.26E-05
54.19225812	6.24E-05
54.27183559	6.22E-05
54.35141307	6.21E-05
54.43099054	6.20E-05
54.51056801	6.19E-05
54.59014548	6.18E-05
54.66972295	6.17E-05
54.74930042	6.16E-05
54.8288779	6.15E-05
54.90845537	6.15E-05
54.98803284	6.14E-05
55.06761031	6.13E-05
55.14718778	6.12E-05
55.22676525	6.10E-05
55.30634272	6.08E-05
55.3859202	6.06E-05
55.46549767	6.04E-05
55.54507514	6.02E-05
55.62465261	5.99E-05
55.70423008	5.97E-05
55.78380755	5.94E-05
55.86338503	5.91E-05
55.9429625	5.89E-05
56.02253997	5.86E-05
56.10211744	5.83E-05
56.18169491	5.81E-05
56.26127238	5.78E-05
56.34084985	5.76E-05
56.42042733	5.74E-05
56.5000048	5.71E-05
56.57958227	5.69E-05
56.65915974	5.67E-05
56.73873721	5.65E-05
56.81831468	5.63E-05
56.89789216	5.61E-05
56.97746963	5.59E-05
57.0570471	5.58E-05
57.13662457	5.56E-05
57.21620204	5.54E-05
57.29577951	5.53E-05
57.37535698	5.51E-05
57.45493446	5.49E-05
57.53451193	5.47E-05
57.6140894	5.45E-05
57.69366687	5.43E-05
57.77324434	5.41E-05
57.85282181	5.40E-05
57.93239929	5.38E-05
58.01197676	5.37E-05
58.09155423	5.35E-05
58.1711317	5.34E-05
58.25070917	5.33E-05
58.33028664	5.32E-05
58.40986411	5.32E-05
58.48944159	5.31E-05
58.56901906	5.30E-05
58.64859653	5.30E-05
58.728174	5.29E-05
58.80775147	5.29E-05
58.88732894	5.28E-05
58.96690642	5.28E-05
59.04648389	5.27E-05
59.12606136	5.26E-05
59.20563883	5.26E-05
59.2852163	5.25E-05
59.36479377	5.23E-05
59.44437124	5.22E-05
59.52394872	5.20E-05
59.60352619	5.19E-05
59.68310366	5.17E-05
59.76268113	5.15E-05
59.8422586	5.13E-05
59.92183607	5.12E-05
60.00141355	5.10E-05
60.08099102	5.08E-05
60.16056849	5.07E-05
60.24014596	5.06E-05
60.31972343	5.04E-05
60.3993009	5.03E-05
60.47887837	5.02E-05
